Time (s) Run #1,Voltage (V) Run #1
0.0,1.5
0.004,1.7
0.008,1.9
0.012,2.1
0.016,2.3
0.02,2.5
0.024,2.8
0.028,3.1
0.032,3.3
0.036,3.5
0.04,3.7
0.044,4.0
0.048,4.2
0.052,4.4
0.056,4.7
0.06,4.9
0.064,5.1
0.068,5.4
0.072,5.6
0.076,5.9
0.08,6.1
0.084,6.3
0.088,6.5
0.092,6.7
0.096,7.0
0.1,7.2
0.104,7.4
0.108,7.6
0.112,7.9
0.116,8.1
0.12,8.4
0.124,8.6
0.128,8.9
0.132,9.1
0.136,9.3
0.14,9.6
0.144,9.8
0.148,10.0
0.152,10.2
0.156,10.4
0.16,10.6
0.164,10.9
0.168,11.1
0.172,11.3
0.176,11.6
0.18,11.8
0.184,12.1
0.188,12.3
0.192,12.6
0.196,12.8
0.2,13.0
0.204,13.2
0.208,13.5
0.212,13.7
0.216,13.9
0.22,14.2
0.224,14.4
0.228,14.6
0.232,14.8
0.236,15.0
0.24,15.2
0.244,15.5
0.248,15.8
0.252,16.0
0.256,16.2
0.26,16.4
0.264,16.7
0.268,16.9
0.272,17.2
0.276,17.4
0.28,17.7
0.284,17.9
0.288,18.1
0.292,18.3
0.296,18.6
0.3,18.8
0.304,19.0
0.308,19.2
0.312,19.5
0.316,19.7
0.32,19.9
0.324,20.1
0.328,20.4
0.332,20.7
0.336,20.9
0.34,21.1
0.344,21.3
0.348,21.6
0.352,21.8
0.356,22.0
0.36,22.3
0.364,22.6
0.368,22.7
0.372,22.9
0.376,23.1
0.38,23.4
0.384,23.6
0.388,23.8
0.392,24.0
0.396,24.3
0.4,24.6
0.404,24.8
0.408,25.0
0.412,25.3
0.416,25.5
0.42,25.7
0.424,26.0
0.428,26.2
0.432,26.4
0.436,26.7
0.44,26.9
0.444,27.1
0.448,27.3
0.452,27.5
0.456,27.8
0.46,28.0
0.464,28.3
0.468,28.5
0.472,28.7
0.476,28.9
0.48,29.2
0.484,29.4
0.488,29.7
0.492,29.9
0.496,30.2
0.5,30.3
0.504,30.6
0.508,30.8
0.512,31.1
0.516,31.3
0.52,31.5
0.524,31.7
0.528,32.0
0.532,32.2
0.536,32.4
0.54,32.6
0.544,32.9
0.548,33.1
0.552,33.3
0.556,33.6
0.56,33.8
0.564,34.0
0.568,34.3
0.572,34.5
0.576,34.7
0.58,35.0
0.584,35.2
0.588,35.4
0.592,35.6
0.596,35.9
0.6,36.1
0.604,36.3
0.608,36.4
0.612,36.2
0.616,35.9
0.62,35.7
0.624,35.4
0.628,35.3
0.632,35.0
0.636,34.8
0.64,34.6
0.644,34.4
0.648,34.1
0.652,33.9
0.656,33.7
0.66,33.4
0.664,33.2
0.668,33.0
0.672,32.7
0.676,32.5
0.68,32.3
0.684,32.0
0.688,31.8
0.692,31.5
0.696,31.3
0.7,31.1
0.704,30.9
0.708,30.6
0.712,30.5
0.716,30.2
0.72,30.0
0.724,29.7
0.728,29.5
0.732,29.3
0.736,29.0
0.74,28.8
0.744,28.6
0.748,28.3
0.752,28.1
0.756,27.8
0.76,27.6
0.764,27.4
0.768,27.1
0.772,27.0
0.776,26.8
0.78,26.6
0.784,26.3
0.788,26.1
0.792,25.8
0.796,25.6
0.8,25.4
0.804,25.2
0.808,24.9
0.812,24.7
0.816,24.4
0.82,24.2
0.824,23.9
0.828,23.7
0.832,23.5
0.836,23.2
0.84,23.0
0.844,22.9
0.848,22.7
0.852,22.4
0.856,22.2
0.86,21.9
0.864,21.7
0.868,21.5
0.872,21.2
0.876,21.0
0.88,20.8
0.884,20.5
0.888,20.3
0.892,20.0
0.896,19.8
0.9,19.6
0.904,19.3
0.908,19.1
0.912,18.9
0.916,18.8
0.92,18.5
0.924,18.3
0.928,18.0
0.932,17.8
0.936,17.6
0.94,17.3
0.944,17.1
0.948,16.8
0.952,16.6
0.956,16.4
0.96,16.2
0.964,15.9
0.968,15.7
0.972,15.5
0.976,15.2
0.98,15.0
0.984,14.7
0.988,14.6
0.992,14.4
0.996,14.2
1.0,13.9
1.004,13.7
1.008,13.4
1.012,13.2
1.016,13.0
1.02,12.7
1.024,12.5
1.028,12.2
1.032,12.0
1.036,11.8
1.04,11.5
1.044,11.3
1.048,11.1
1.052,10.8
1.056,10.6
1.06,10.4
1.064,10.2
1.068,10.0
1.072,9.7
1.076,9.5
1.08,9.2
1.084,9.0
1.088,8.8
1.092,8.6
1.096,8.3
1.1,8.1
1.104,7.9
1.108,7.6
1.112,7.4
1.116,7.2
1.12,7.0
1.124,6.7
1.128,6.5
1.132,6.2
1.136,6.1
1.14,5.9
1.144,5.6
1.148,5.4
1.152,5.1
1.156,4.9
1.16,4.7
1.164,4.4
1.168,4.2
1.172,4.0
1.176,3.7
1.18,3.5
1.184,3.3
1.188,3.1
1.192,2.8
1.196,2.6
1.2,2.3
1.204,2.1
1.208,2.0
1.212,1.7
1.216,1.5
1.22,1.3
1.224,1.0
1.228,0.8
1.232,0.5
1.236,0.3
1.24,0.1
1.244,-0.1
1.248,-0.4
1.252,-0.6
1.256,-0.8
1.26,-1.1
1.264,-1.3
1.268,-1.6
1.272,-1.8
1.276,-2.0
1.28,-2.2
1.284,-2.4
1.288,-2.6
1.292,-2.9
1.296,-3.1
1.3,-3.4
1.304,-3.6
1.308,-3.8
1.312,-4.1
1.316,-4.3
1.32,-4.5
1.324,-4.7
1.328,-5.0
1.332,-5.2
1.336,-5.5
1.34,-5.7
1.344,-5.9
1.348,-6.1
1.352,-6.3
1.356,-6.6
1.36,-6.8
1.364,-7.0
1.368,-7.3
1.372,-7.5
1.376,-7.7
1.38,-8.0
1.384,-8.1
1.388,-7.9
1.392,-7.7
1.396,-7.4
1.4,-7.2
1.404,-6.9
1.408,-6.7
1.412,-6.5
1.416,-6.2
1.42,-6.1
1.424,-5.9
1.428,-5.6
1.432,-5.4
1.436,-5.1
1.44,-4.9
1.444,-4.7
1.448,-4.4
1.452,-4.2
1.456,-3.9
1.46,-3.7
1.464,-3.5
1.468,-3.3
1.472,-3.0
1.476,-2.7
1.48,-2.5
1.484,-2.3
1.488,-2.1
1.492,-1.9
1.496,-1.7
1.5,-1.4
1.504,-1.2
1.508,-1.0
1.512,-0.7
1.516,-0.5
1.52,-0.3
1.524,0.0
1.528,0.2
1.532,0.4
1.536,0.7
1.54,0.9
1.544,1.2
1.548,1.4
1.552,1.6
1.556,1.9
1.56,2.1
1.564,2.3
1.568,2.5
1.572,2.7
1.576,2.9
1.58,3.2
1.584,3.4
1.588,3.7
1.592,3.9
1.596,4.2
1.6,4.4
1.604,4.6
1.608,4.8
1.612,5.1
1.616,5.3
1.62,5.6
1.624,5.8
1.628,6.0
1.632,6.2
1.636,6.4
1.64,6.7
1.644,6.9
1.648,7.1
1.652,7.4
1.656,7.6
1.66,7.9
1.664,8.1
1.668,8.3
1.672,8.5
1.676,8.8
1.68,9.0
1.684,9.2
1.688,9.5
1.692,9.8
1.696,10.0
1.7,10.2
1.704,10.4
1.708,10.6
1.712,10.8
1.716,11.1
1.72,11.3
1.724,11.5
1.728,11.8
1.732,12.0
1.736,12.2
1.74,12.5
1.744,12.7
1.748,13.0
1.752,13.2
1.756,13.4
1.76,13.7
1.764,13.9
1.768,14.1
1.772,14.4
1.776,14.6
1.78,14.8
1.784,15.0
1.788,15.2
1.792,15.4
1.796,15.7
1.8,15.9
1.804,16.2
1.808,16.4
1.812,16.6
1.816,16.9
1.82,17.1
1.824,17.3
1.828,17.6
1.832,17.8
1.836,18.0
1.84,18.3
1.844,18.5
1.848,18.8
1.852,18.9
1.856,19.1
1.86,19.4
1.864,19.6
1.868,19.9
1.872,20.1
1.876,20.3
1.88,20.6
1.884,20.8
1.888,21.1
1.892,21.3
1.896,21.5
1.9,21.8
1.904,22.0
1.908,22.2
1.912,22.5
1.916,22.7
1.92,22.9
1.924,23.0
1.928,23.4
1.932,23.6
1.936,23.8
1.94,24.0
1.944,24.3
1.948,24.5
1.952,24.7
1.956,25.0
1.96,25.2
1.964,25.4
1.968,25.7
1.972,25.9
1.976,26.1
1.98,26.4
1.984,26.6
1.988,26.8
1.992,27.1
1.996,27.2
2.0,27.5
2.004,27.7
2.008,27.9
2.012,28.2
2.016,28.4
2.02,28.6
2.024,28.9
2.028,29.1
2.032,29.4
2.036,29.6
2.04,29.9
2.044,30.1
2.048,30.3
2.052,30.5
2.056,30.8
2.06,31.0
2.064,31.3
2.068,31.4
2.072,31.7
2.076,31.9
2.08,32.1
2.084,32.3
2.088,32.6
2.092,32.8
2.096,33.1
2.1,33.3
2.104,33.5
2.108,33.7
2.112,34.0
2.116,34.2
2.12,34.5
2.124,34.7
2.128,35.0
2.132,35.2
2.136,35.4
2.14,35.5
2.144,35.8
2.148,36.0
2.152,36.2
2.156,36.4
2.16,36.2
2.164,36.0
2.168,35.7
2.172,35.5
2.176,35.3
2.18,35.1
2.184,34.9
2.188,34.6
2.192,34.4
2.196,34.2
2.2,34.0
2.204,33.7
2.208,33.5
2.212,33.2
2.216,33.0
2.22,32.8
2.224,32.5
2.228,32.3
2.232,32.1
2.236,31.8
2.24,31.6
2.244,31.3
2.248,31.2
2.252,30.9
2.256,30.8
2.26,30.5
2.264,30.3
2.268,30.0
2.272,29.8
2.276,29.5
2.28,29.3
2.284,29.1
2.288,28.9
2.292,28.6
2.296,28.4
2.3,28.1
2.304,27.9
2.308,27.7
2.312,27.4
2.316,27.2
2.32,27.1
2.324,26.9
2.328,26.6
2.332,26.4
2.336,26.1
2.34,25.9
2.344,25.6
2.348,25.4
2.352,25.2
2.356,25.0
2.36,24.7
2.364,24.5
2.368,24.3
2.372,24.0
2.376,23.8
2.38,23.5
2.384,23.3
2.388,23.1
2.392,22.9
2.396,22.7
2.4,22.5
2.404,22.2
2.408,22.0
2.412,21.8
2.416,21.5
2.42,21.3
2.424,21.1
2.428,20.8
2.432,20.6
2.436,20.4
2.44,20.1
2.444,19.9
2.448,19.7
2.452,19.4
2.456,19.2
2.46,19.0
2.464,18.8
2.468,18.5
2.472,18.3
2.476,18.1
2.48,17.9
2.484,17.6
2.488,17.4
2.492,17.2
2.496,16.9
2.5,16.7
2.504,16.4
2.508,16.2
2.512,16.0
2.516,15.7
2.52,15.5
2.524,15.2
2.528,15.0
2.532,14.8
2.536,14.6
2.54,14.4
2.544,14.2
2.548,14.0
2.552,13.7
2.556,13.5
2.56,13.3
2.564,13.0
2.568,12.8
2.572,12.6
2.576,12.3
2.58,12.1
2.584,11.8
2.588,11.6
2.592,11.4
2.596,11.1
2.6,10.9
2.604,10.7
2.608,10.4
2.612,10.3
2.616,10.0
2.62,9.8
2.624,9.6
2.628,9.4
2.632,9.1
2.636,8.9
2.64,8.7
2.644,8.4
2.648,8.2
2.652,7.9
2.656,7.7
2.66,7.5
2.664,7.2
2.668,7.0
2.672,6.8
2.676,6.5
2.68,6.3
2.684,6.2
2.688,5.9
2.692,5.7
2.696,5.5
2.7,5.2
2.704,4.9
2.708,4.7
2.712,4.5
2.716,4.3
2.72,4.0
2.724,3.8
2.728,3.5
2.732,3.3
2.736,3.1
2.74,2.8
2.744,2.6
2.748,2.4
2.752,2.2
2.756,2.0
2.76,1.8
2.764,1.6
2.768,1.3
2.772,1.1
2.776,0.8
2.78,0.6
2.784,0.4
2.788,0.2
2.792,-0.1
2.796,-0.3
2.8,-0.6
2.804,-0.8
2.808,-1.1
2.812,-1.3
2.816,-1.6
2.82,-1.8
2.824,-2.0
2.828,-2.1
2.832,-2.3
2.836,-2.6
2.84,-2.8
2.844,-3.1
2.848,-3.3
2.852,-3.5
2.856,-3.8
2.86,-4.0
2.864,-4.2
2.868,-4.5
2.872,-4.7
2.876,-4.9
2.88,-5.2
2.884,-5.4
2.888,-5.6
2.892,-5.9
2.896,-6.1
2.9,-6.2
2.904,-6.5
2.908,-6.8
2.912,-6.9
2.916,-7.2
2.92,-7.4
2.924,-7.7
2.928,-7.9
2.932,-8.1
2.936,-8.0
2.94,-7.7
2.944,-7.5
2.948,-7.2
2.952,-7.0
2.956,-6.8
2.96,-6.5
2.964,-6.2
2.968,-6.1
2.972,-5.9
2.976,-5.7
2.98,-5.4
2.984,-5.2
2.988,-4.9
2.992,-4.7
2.996,-4.5
3.0,-4.2
3.004,-4.0
3.008,-3.8
3.012,-3.5
3.016,-3.3
3.02,-3.1
3.024,-2.8
3.028,-2.6
3.032,-2.3
3.036,-2.1
3.04,-2.0
3.044,-1.8
3.048,-1.5
3.052,-1.3
3.056,-1.0
3.06,-0.8
3.064,-0.6
3.068,-0.3
3.072,0.0
3.076,0.2
3.08,0.4
3.084,0.6
3.088,0.9
3.092,1.1
3.096,1.4
3.1,1.6
3.104,1.8
3.108,2.0
3.112,2.2
3.116,2.4
3.12,2.7
3.124,2.9
3.128,3.1
3.132,3.4
3.136,3.6
3.14,3.9
3.144,4.1
3.148,4.3
3.152,4.5
3.156,4.8
3.16,5.0
3.164,5.3
3.168,5.5
3.172,5.8
3.176,6.0
3.18,6.2
3.184,6.4
3.188,6.6
3.192,6.8
3.196,7.1
3.2,7.3
3.204,7.5
3.208,7.8
3.212,8.0
3.216,8.3
3.22,8.5
3.224,8.7
3.228,9.0
3.232,9.2
3.236,9.4
3.24,9.7
3.244,9.9
3.248,10.2
3.252,10.4
3.256,10.5
3.26,10.8
3.264,11.0
3.268,11.3
3.272,11.5
3.276,11.7
3.28,11.9
3.284,12.2
3.288,12.4
3.292,12.7
3.296,12.9
3.3,13.1
3.304,13.4
3.308,13.6
3.312,13.9
3.316,14.1
3.32,14.3
3.324,14.5
3.328,14.7
3.332,14.9
3.336,15.2
3.34,15.4
3.344,15.7
3.348,15.9
3.352,16.1
3.356,16.3
3.36,16.6
3.364,16.8
3.368,17.1
3.372,17.3
3.376,17.6
3.38,17.8
3.384,18.0
3.388,18.2
3.392,18.5
3.396,18.8
3.4,18.9
3.404,19.1
3.408,19.3
3.412,19.6
3.416,19.8
3.42,20.0
3.424,20.3
3.428,20.5
3.432,20.7
3.436,21.0
3.44,21.3
3.444,21.5
3.448,21.7
3.452,21.9
3.456,22.2
3.46,22.4
3.464,22.7
3.468,22.9
3.472,23.0
3.476,23.2
3.48,23.5
3.484,23.7
3.488,24.0
3.492,24.2
3.496,24.4
3.5,24.7
3.504,24.9
3.508,25.2
3.512,25.4
3.516,25.6
3.52,25.9
3.524,26.1
3.528,26.3
3.532,26.6
3.536,26.8
3.54,27.0
3.544,27.2
3.548,27.4
3.552,27.6
3.556,27.9
3.56,28.1
3.564,28.4
3.568,28.6
3.572,28.8
3.576,29.1
3.58,29.3
3.584,29.5
3.588,29.8
3.592,30.0
3.596,30.3
3.6,30.5
3.604,30.7
3.608,30.9
3.612,31.2
3.616,31.3
3.62,31.6
3.624,31.8
3.628,32.1
3.632,32.3
3.636,32.5
3.64,32.8
3.644,33.0
3.648,33.2
3.652,33.5
3.656,33.7
3.66,34.0
3.664,34.2
3.668,34.4
3.672,34.6
3.676,34.9
3.68,35.1
3.684,35.4
3.688,35.5
3.692,35.7
3.696,36.0
3.7,36.2
3.704,36.4
3.708,36.3
3.712,36.0
3.716,35.8
3.72,35.5
3.724,35.4
3.728,35.2
3.732,34.9
3.736,34.7
3.74,34.4
3.744,34.2
3.748,34.0
3.752,33.7
3.756,33.6
3.76,33.3
3.764,33.1
3.768,32.8
3.772,32.6
3.776,32.3
3.78,32.1
3.784,31.9
3.788,31.6
3.792,31.4
3.796,31.3
3.8,31.0
3.804,30.8
3.808,30.6
3.812,30.3
3.816,30.1
3.82,29.8
3.824,29.6
3.828,29.4
3.832,29.1
3.836,28.9
3.84,28.7
3.844,28.5
3.848,28.2
3.852,28.0
3.856,27.7
3.86,27.5
3.864,27.3
3.868,27.1
3.872,26.9
3.876,26.7
3.88,26.4
3.884,26.2
3.888,25.9
3.892,25.7
3.896,25.5
3.9,25.3
3.904,25.0
3.908,24.8
3.912,24.6
3.916,24.3
3.92,24.1
3.924,23.8
3.928,23.6
3.932,23.4
3.936,23.1
3.94,22.9
3.944,22.8
3.948,22.5
3.952,22.3
3.956,22.1
3.96,21.8
3.964,21.6
3.968,21.3
3.972,21.1
3.976,20.9
3.98,20.6
3.984,20.4
3.988,20.2
3.992,19.9
3.996,19.7
4.0,19.5
4.004,19.2
4.008,19.0
4.012,18.8
4.016,18.6
4.02,18.4
4.024,18.1
4.028,17.9
4.032,17.7
4.036,17.4
4.04,17.2
4.044,17.0
4.048,16.7
4.052,16.5
4.056,16.2
4.06,16.0
4.064,15.8
4.068,15.6
4.072,15.3
4.076,15.1
4.08,14.9
4.084,14.6
4.088,14.5
4.092,14.3
4.096,14.0
4.1,13.8
4.104,13.5
4.108,13.3
4.112,13.1
4.116,12.8
4.12,12.6
4.124,12.3
4.128,12.1
4.132,11.9
4.136,11.7
4.14,11.4
4.144,11.2
4.148,10.9
4.152,10.7
4.156,10.5
4.16,10.3
4.164,10.1
4.168,9.9
4.172,9.6
4.176,9.4
4.18,9.2
4.184,9.0
4.188,8.7
4.192,8.5
4.196,8.2
4.2,8.0
4.204,7.8
4.208,7.5
4.212,7.3
4.216,7.0
4.22,6.8
4.224,6.6
4.228,6.4
4.232,6.2
4.236,6.0
4.24,5.7
4.244,5.5
4.248,5.2
4.252,5.0
4.256,4.8
4.26,4.6
4.264,4.3
4.268,4.1
4.272,3.9
4.276,3.6
4.28,3.4
4.284,3.2
4.288,2.9
4.292,2.7
4.296,2.5
4.3,2.2
4.304,2.1
4.308,1.8
4.312,1.6
4.316,1.4
4.32,1.2
4.324,0.9
4.328,0.7
4.332,0.4
4.336,0.2
4.34,0.0
4.344,-0.3
4.348,-0.5
4.352,-0.7
4.356,-1.0
4.36,-1.2
4.364,-1.5
4.368,-1.7
4.372,-1.9
4.376,-2.1
4.38,-2.3
4.384,-2.5
4.388,-2.8
4.392,-3.0
4.396,-3.3
4.4,-3.5
4.404,-3.7
4.408,-3.9
4.412,-4.2
4.416,-4.4
4.42,-4.6
4.424,-4.9
4.428,-5.1
4.432,-5.4
4.436,-5.6
4.44,-5.8
4.444,-6.1
4.448,-6.2
4.452,-6.5
4.456,-6.7
4.46,-6.9
4.464,-7.1
4.468,-7.4
4.472,-7.6
4.476,-7.8
4.48,-8.1
4.484,-8.0
4.488,-7.8
4.492,-7.5
4.496,-7.3
4.5,-7.1
4.504,-6.8
4.508,-6.6
4.512,-6.4
4.516,-6.2
4.52,-6.0
4.524,-5.7
4.528,-5.5
4.532,-5.3
4.536,-5.0
4.54,-4.8
4.544,-4.5
4.548,-4.3
4.552,-4.1
4.556,-3.8
4.56,-3.6
4.564,-3.4
4.568,-3.1
4.572,-2.9
4.576,-2.7
4.58,-2.4
4.584,-2.2
4.588,-2.0
4.592,-1.8
4.596,-1.5
4.6,-1.3
4.604,-1.1
4.608,-0.9
4.612,-0.6
4.616,-0.4
4.62,-0.2
4.624,0.1
4.628,0.3
4.632,0.6
4.636,0.8
4.64,1.0
4.644,1.3
4.648,1.5
4.652,1.7
4.656,2.0
4.66,2.1
4.664,2.4
4.668,2.6
4.672,2.8
4.676,3.1
4.68,3.3
4.684,3.6
4.688,3.8
4.692,4.0
4.696,4.3
4.7,4.5
4.704,4.7
4.708,5.0
4.712,5.2
4.716,5.5
4.72,5.7
4.724,5.9
4.728,6.1
4.732,6.3
4.736,6.5
4.74,6.8
4.744,7.0
4.748,7.2
4.752,7.5
4.756,7.7
4.76,8.0
4.764,8.2
4.768,8.4
4.772,8.6
4.776,8.9
4.78,9.1
4.784,9.4
4.788,9.6
4.792,9.8
4.796,10.1
4.8,10.3
4.804,10.5
4.808,10.7
4.812,10.9
4.816,11.2
4.82,11.4
4.824,11.6
4.828,11.9
4.832,12.1
4.836,12.3
4.84,12.6
4.844,12.8
4.848,13.1
4.852,13.3
4.856,13.5
4.86,13.8
4.864,14.0
4.868,14.3
4.872,14.5
4.876,14.6
4.88,14.9
4.884,15.1
4.888,15.3
4.892,15.6
4.896,15.8
4.9,16.0
4.904,16.3
4.908,16.5
4.912,16.8
4.916,17.0
4.92,17.2
4.924,17.4
4.928,17.7
4.932,18.0
4.936,18.2
4.94,18.4
4.944,18.6
4.948,18.8
4.952,19.0
4.956,19.3
4.96,19.5
4.964,19.7
4.968,20.0
4.972,20.2
4.976,20.5
4.98,20.7
4.984,20.9
4.988,21.2
4.992,21.4
4.996,21.6
5.0,21.9
5.004,22.1
5.008,22.3
5.012,22.6
5.016,22.8
5.02,23.0
5.024,23.2
5.028,23.4
5.032,23.7
5.036,23.9
5.04,24.2
5.044,24.4
5.048,24.6
5.052,24.8
5.056,25.1
5.06,25.3
5.064,25.6
5.068,25.8
5.072,26.0
5.076,26.3
5.08,26.5
5.084,26.7
5.088,27.0
5.092,27.1
5.096,27.3
5.1,27.6
5.104,27.8
5.108,28.1
5.112,28.3
5.116,28.5
5.12,28.7
5.124,29.0
